freq,psd_x,psd_y,psd_z,psd_xyz,shapers:,zv(71.8),mzv(70.6),ei(87.6),2hump_ei(112.8),3hump_ei(139.6)
0.0,0.000e+00,0.000e+00,0.000e+00,0.000e+00,,1.000,1.000,1.000,1.000,1.000
1.6,7.518e-12,1.229e-14,8.689e-15,7.539e-12,,1.000,0.999,0.999,0.999,0.999
3.1,4.599e-01,1.998e-03,1.565e-03,4.635e-01,,0.999,0.999,0.999,0.998,0.998
4.7,2.299e+01,3.291e-01,1.929e-01,2.352e+01,,0.999,0.998,0.998,0.998,0.997
6.2,6.985e+01,2.046e+00,9.278e-01,7.282e+01,,0.998,0.997,0.997,0.997,0.996
7.8,1.301e+02,2.469e+00,1.959e+00,1.346e+02,,0.998,0.997,0.996,0.996,0.996
9.4,2.288e+02,3.249e+00,2.654e+00,2.347e+02,,0.997,0.996,0.996,0.995,0.995
10.9,2.810e+02,3.186e+00,2.597e+00,2.868e+02,,0.997,0.995,0.995,0.994,0.994
12.5,3.088e+02,2.500e+00,2.138e+00,3.134e+02,,0.996,0.995,0.994,0.993,0.993
14.1,3.300e+02,1.982e+00,1.638e+00,3.336e+02,,0.996,0.994,0.993,0.992,0.992
15.6,3.736e+02,1.981e+00,1.809e+00,3.774e+02,,0.995,0.993,0.992,0.991,0.991
17.2,4.129e+02,2.156e+00,1.892e+00,4.169e+02,,0.995,0.992,0.991,0.990,0.990
18.7,4.541e+02,2.184e+00,1.601e+00,4.579e+02,,0.994,0.991,0.990,0.989,0.988
20.3,5.048e+02,1.940e+00,1.385e+00,5.082e+02,,0.993,0.990,0.989,0.988,0.987
21.9,5.663e+02,1.801e+00,1.268e+00,5.694e+02,,0.993,0.989,0.989,0.987,0.986
23.4,6.304e+02,1.843e+00,1.119e+00,6.334e+02,,0.992,0.989,0.988,0.986,0.985
25.0,6.828e+02,1.853e+00,1.049e+00,6.857e+02,,0.992,0.988,0.987,0.985,0.984
26.5,7.405e+02,2.050e+00,1.074e+00,7.436e+02,,0.991,0.987,0.985,0.984,0.983
28.1,8.204e+02,1.847e+00,1.062e+00,8.233e+02,,0.990,0.985,0.984,0.982,0.981
29.7,9.034e+02,2.297e+00,8.655e-01,9.066e+02,,0.989,0.984,0.983,0.981,0.980
31.2,9.876e+02,2.583e+00,8.769e-01,9.910e+02,,0.989,0.983,0.982,0.980,0.979
32.8,1.094e+03,1.812e+00,9.749e-01,1.097e+03,,0.988,0.982,0.981,0.979,0.977
34.3,1.223e+03,1.898e+00,9.719e-01,1.225e+03,,0.987,0.981,0.980,0.977,0.976
35.9,1.354e+03,2.287e+00,9.743e-01,1.357e+03,,0.986,0.980,0.979,0.976,0.975
37.5,1.515e+03,3.266e+00,1.031e+00,1.520e+03,,0.986,0.979,0.977,0.975,0.973
39.0,1.671e+03,4.837e+00,1.028e+00,1.677e+03,,0.985,0.978,0.976,0.973,0.972
40.6,1.882e+03,4.877e+00,1.020e+00,1.888e+03,,0.984,0.977,0.975,0.972,0.970
42.2,2.117e+03,4.855e+00,1.126e+00,2.123e+03,,0.983,0.975,0.973,0.971,0.969
43.7,2.385e+03,8.403e+00,1.298e+00,2.395e+03,,0.982,0.974,0.972,0.969,0.967
45.3,2.744e+03,9.364e+00,1.487e+00,2.755e+03,,0.981,0.973,0.971,0.968,0.966
46.8,3.113e+03,1.008e+01,1.793e+00,3.125e+03,,0.980,0.972,0.969,0.966,0.964
48.4,3.598e+03,1.438e+01,2.152e+00,3.614e+03,,0.979,0.970,0.968,0.965,0.963
50.0,4.237e+03,2.171e+01,2.734e+00,4.262e+03,,0.978,0.969,0.967,0.963,0.961
51.5,4.950e+03,3.299e+01,3.665e+00,4.986e+03,,0.977,0.968,0.965,0.962,0.959
53.1,5.866e+03,5.015e+01,4.812e+00,5.921e+03,,0.976,0.966,0.964,0.960,0.958
54.6,7.163e+03,7.679e+01,6.688e+00,7.247e+03,,0.975,0.965,0.962,0.958,0.956
56.2,8.584e+03,1.129e+02,9.497e+00,8.707e+03,,0.974,0.963,0.961,0.957,0.954
57.8,1.056e+04,1.797e+02,1.363e+01,1.075e+04,,0.973,0.962,0.959,0.955,0.952
59.3,1.348e+04,3.163e+02,1.958e+01,1.381e+04,,0.972,0.960,0.958,0.953,0.951
60.9,1.638e+04,4.585e+02,2.518e+01,1.686e+04,,0.971,0.959,0.956,0.952,0.949
62.4,1.896e+04,5.421e+02,2.668e+01,1.953e+04,,0.970,0.957,0.954,0.950,0.947
64.0,2.258e+04,5.274e+02,2.770e+01,2.314e+04,,0.969,0.956,0.953,0.948,0.945
65.6,2.717e+04,4.664e+02,3.312e+01,2.767e+04,,0.968,0.954,0.951,0.946,0.943
67.1,3.239e+04,4.657e+02,4.394e+01,3.290e+04,,0.967,0.953,0.949,0.944,0.941
68.7,3.840e+04,5.390e+02,5.840e+01,3.900e+04,,0.965,0.951,0.948,0.943,0.940
70.3,4.193e+04,7.036e+02,6.413e+01,4.270e+04,,0.964,0.949,0.946,0.941,0.938
71.8,4.202e+04,7.955e+02,5.644e+01,4.288e+04,,0.963,0.948,0.944,0.939,0.936
73.4,4.075e+04,7.283e+02,6.358e+01,4.154e+04,,0.962,0.946,0.942,0.937,0.934
74.9,3.498e+04,5.945e+02,7.192e+01,3.564e+04,,0.961,0.944,0.940,0.935,0.932
76.5,2.820e+04,4.967e+02,6.721e+01,2.876e+04,,0.959,0.943,0.939,0.933,0.930
78.1,2.383e+04,4.274e+02,5.540e+01,2.431e+04,,0.958,0.941,0.937,0.931,0.928
79.6,1.875e+04,3.394e+02,3.934e+01,1.912e+04,,0.957,0.939,0.935,0.929,0.925
81.2,1.464e+04,2.592e+02,2.625e+01,1.492e+04,,0.956,0.937,0.933,0.927,0.923
82.7,1.233e+04,1.964e+02,1.956e+01,1.254e+04,,0.954,0.935,0.931,0.925,0.921
84.3,9.836e+03,1.311e+02,1.577e+01,9.983e+03,,0.953,0.934,0.929,0.923,0.919
85.9,7.772e+03,8.530e+01,1.403e+01,7.871e+03,,0.952,0.932,0.927,0.921,0.917
87.4,6.495e+03,5.650e+01,1.503e+01,6.566e+03,,0.950,0.930,0.925,0.919,0.915
89.0,5.193e+03,3.544e+01,1.624e+01,5.245e+03,,0.949,0.928,0.923,0.917,0.913
90.5,4.221e+03,2.055e+01,1.669e+01,4.258e+03,,0.947,0.926,0.921,0.914,0.910
92.1,3.689e+03,1.338e+01,1.721e+01,3.719e+03,,0.946,0.924,0.919,0.912,0.908
93.7,3.133e+03,1.077e+01,1.679e+01,3.160e+03,,0.944,0.922,0.917,0.910,0.906
95.2,2.721e+03,9.029e+00,1.555e+01,2.746e+03,,0.943,0.920,0.915,0.908,0.904
96.8,2.532e+03,8.391e+00,1.464e+01,2.555e+03,,0.942,0.918,0.913,0.906,0.901
98.4,2.291e+03,9.044e+00,1.370e+01,2.314e+03,,0.940,0.916,0.911,0.903,0.899
99.9,2.081e+03,9.504e+00,1.317e+01,2.104e+03,,0.939,0.914,0.908,0.901,0.896
101.5,1.956e+03,1.181e+01,1.221e+01,1.980e+03,,0.937,0.912,0.906,0.899,0.894
103.0,1.762e+03,1.197e+01,1.201e+01,1.786e+03,,0.935,0.910,0.904,0.896,0.892
104.6,1.582e+03,1.096e+01,1.323e+01,1.606e+03,,0.934,0.908,0.902,0.894,0.889
106.2,1.478e+03,1.091e+01,1.378e+01,1.503e+03,,0.932,0.906,0.900,0.892,0.887
107.7,1.336e+03,1.282e+01,1.581e+01,1.365e+03,,0.931,0.903,0.897,0.889,0.884
109.3,1.218e+03,1.285e+01,1.799e+01,1.249e+03,,0.929,0.901,0.895,0.887,0.882
110.8,1.142e+03,1.196e+01,2.030e+01,1.175e+03,,0.928,0.899,0.893,0.885,0.879
112.4,1.055e+03,1.165e+01,2.422e+01,1.091e+03,,0.926,0.897,0.890,0.882,0.877
114.0,9.658e+02,1.291e+01,3.059e+01,1.009e+03,,0.924,0.895,0.888,0.880,0.874
115.5,9.258e+02,1.353e+01,3.759e+01,9.769e+02,,0.922,0.892,0.886,0.877,0.872
117.1,8.456e+02,1.523e+01,4.719e+01,9.080e+02,,0.921,0.890,0.883,0.874,0.869
118.6,7.677e+02,1.730e+01,5.645e+01,8.415e+02,,0.919,0.888,0.881,0.872,0.866
120.2,7.527e+02,2.037e+01,7.082e+01,8.438e+02,,0.917,0.886,0.878,0.869,0.864
121.8,7.062e+02,2.598e+01,9.106e+01,8.232e+02,,0.916,0.883,0.876,0.867,0.861
123.3,6.496e+02,3.416e+01,1.197e+02,8.035e+02,,0.914,0.881,0.874,0.864,0.859
124.9,6.440e+02,4.891e+01,1.680e+02,8.609e+02,,0.912,0.878,0.871,0.862,0.856
126.5,6.113e+02,6.494e+01,2.206e+02,8.968e+02,,0.910,0.876,0.869,0.859,0.853
128.0,5.642e+02,7.965e+01,2.647e+02,9.086e+02,,0.909,0.874,0.866,0.856,0.850
129.6,5.710e+02,1.017e+02,3.194e+02,9.921e+02,,0.907,0.871,0.863,0.854,0.848
131.1,5.422e+02,1.145e+02,3.552e+02,1.012e+03,,0.905,0.869,0.861,0.851,0.845
132.7,4.921e+02,1.348e+02,3.898e+02,1.017e+03,,0.903,0.866,0.858,0.848,0.842
134.3,4.164e+02,1.368e+02,3.719e+02,9.251e+02,,0.901,0.864,0.856,0.846,0.839
135.8,1.445e+02,1.040e+02,2.464e+02,4.949e+02,,0.899,0.861,0.853,0.843,0.837
137.4,3.753e+01,8.467e+01,1.741e+02,2.963e+02,,0.897,0.859,0.850,0.840,0.834
138.9,2.581e+01,8.070e+01,1.488e+02,2.553e+02,,0.895,0.856,0.848,0.837,0.831
140.5,2.232e+01,6.987e+01,1.213e+02,2.135e+02,,0.893,0.854,0.845,0.835,0.828
142.1,1.881e+01,6.759e+01,1.092e+02,1.956e+02,,0.892,0.851,0.842,0.832,0.825
143.6,2.123e+01,6.691e+01,1.041e+02,1.922e+02,,0.890,0.849,0.840,0.829,0.822
145.2,2.016e+01,6.170e+01,9.225e+01,1.741e+02,,0.888,0.846,0.837,0.826,0.819
146.7,2.104e+01,5.301e+01,7.609e+01,1.501e+02,,0.886,0.843,0.834,0.823,0.816
148.3,2.013e+01,4.828e+01,6.545e+01,1.339e+02,,0.884,0.841,0.832,0.820,0.813
149.9,2.169e+01,4.746e+01,5.967e+01,1.288e+02,,0.882,0.838,0.829,0.818,0.810
151.4,2.043e+01,4.145e+01,4.989e+01,1.118e+02,,0.880,0.835,0.826,0.815,0.807
153.0,2.393e+01,3.749e+01,4.368e+01,1.051e+02,,0.877,0.833,0.823,0.812,0.804
154.6,2.498e+01,3.470e+01,3.862e+01,9.831e+01,,0.875,0.830,0.820,0.809,0.802
156.1,2.350e+01,3.281e+01,3.520e+01,9.152e+01,,0.873,0.827,0.818,0.806,0.799
157.7,2.728e+01,3.377e+01,3.579e+01,9.684e+01,,0.871,0.825,0.815,0.803,0.796
159.2,2.583e+01,3.504e+01,3.489e+01,9.576e+01,,0.869,0.822,0.812,0.800,0.792
160.8,2.980e+01,3.345e+01,3.312e+01,9.637e+01,,0.867,0.819,0.809,0.797,0.789
162.4,3.102e+01,3.210e+01,3.103e+01,9.414e+01,,0.865,0.816,0.806,0.794,0.786
163.9,3.005e+01,2.876e+01,2.836e+01,8.717e+01,,0.863,0.813,0.803,0.791,0.783
165.5,3.343e+01,2.508e+01,2.543e+01,8.394e+01,,0.860,0.811,0.800,0.788,0.780
167.0,3.753e+01,2.339e+01,2.372e+01,8.464e+01,,0.858,0.808,0.797,0.785,0.777
168.6,5.014e+01,2.000e+01,2.134e+01,9.148e+01,,0.856,0.805,0.794,0.782,0.774
170.2,5.131e+01,1.717e+01,1.781e+01,8.628e+01,,0.854,0.802,0.791,0.779,0.771
171.7,5.628e+01,1.471e+01,1.601e+01,8.701e+01,,0.852,0.799,0.788,0.776,0.768
173.3,6.261e+01,1.248e+01,1.382e+01,8.891e+01,,0.849,0.796,0.785,0.772,0.764
174.8,7.031e+01,1.121e+01,1.301e+01,9.453e+01,,0.847,0.793,0.782,0.769,0.761
176.4,7.735e+01,1.028e+01,1.193e+01,9.957e+01,,0.845,0.790,0.779,0.766,0.758
178.0,7.529e+01,8.448e+00,9.845e+00,9.358e+01,,0.843,0.787,0.776,0.763,0.755
179.5,7.584e+01,6.540e+00,8.637e+00,9.102e+01,,0.840,0.784,0.773,0.760,0.751
181.1,7.804e+01,5.889e+00,7.095e+00,9.102e+01,,0.838,0.782,0.770,0.757,0.748
182.7,8.227e+01,4.759e+00,6.011e+00,9.305e+01,,0.836,0.779,0.767,0.754,0.745
184.2,8.649e+01,4.522e+00,5.895e+00,9.691e+01,,0.833,0.776,0.764,0.750,0.742
185.8,9.014e+01,4.395e+00,5.343e+00,9.988e+01,,0.831,0.772,0.761,0.747,0.738
187.3,8.364e+01,3.995e+00,4.838e+00,9.248e+01,,0.828,0.769,0.757,0.744,0.735
188.9,9.063e+01,4.381e+00,5.080e+00,1.001e+02,,0.826,0.766,0.754,0.741,0.732
190.5,8.834e+01,3.885e+00,4.401e+00,9.662e+01,,0.824,0.763,0.751,0.737,0.729
192.0,8.974e+01,3.713e+00,4.128e+00,9.758e+01,,0.821,0.760,0.748,0.734,0.725
193.6,9.953e+01,4.621e+00,4.463e+00,1.086e+02,,0.819,0.757,0.745,0.731,0.722
195.1,9.402e+01,4.330e+00,4.342e+00,1.027e+02,,0.816,0.754,0.742,0.728,0.719
196.7,8.514e+01,4.089e+00,4.048e+00,9.327e+01,,0.814,0.751,0.738,0.724,0.715
198.3,9.650e+01,4.770e+00,4.267e+00,1.055e+02,,0.811,0.748,0.735,0.721,0.712
199.8,8.372e+01,4.771e+00,3.934e+00,9.243e+01,,0.809,0.745,0.732,0.718,0.708
201.4,7.844e+01,4.527e+00,3.612e+00,8.657e+01,,0.806,0.742,0.729,0.714,0.705
